Voltage/kV,Current/uA,Uncertainty/uA
0.006,0.00,0.01
0.614,0.00,
1.056,0.01,0.01
1.639,0.01,
2.081,0.02,
2.652,0.03,
3.129,0.04,
3.58,0.06,0.01
4.13,0.08,
4.65,0.11,
5.08,0.13,0.02
5.33,0.15,0.01
5.57,0.18,0.01
5.71,0.21,0.01
5.81,0.23,0.01
5.87,0.24,0.01
5.93,0.25,0.01
5.98,0.27,0.01
6.10,0.31,0.02
6.15,0.33,0.01
6.20,0.34,0.02
6.23,0.37,0.01
6.27,0.41,0.03
6.34,0.46,0.03
6.38,0.53,0.04
6.42,0.61,0.04
6.46,0.71,0.03